**** COMMENT ****

**** INPUTS ****
kVp [kV] hvMIN [keV] Dhv [keV]
225  22.5  0.5
Angle [deg.]
20
t_AIR t_BE t_AL t_CU t_SN t_W t_Ta t_Wa [mm]
0  0  1  0  0  0  0  0
Nf P
0.68  0.33
****CALCULATED OUTPUTS ****
Brem[uGy/mAs@1m] Char[uGy/mAs@1m]
410.0537  54.35847
HVL1[cm AL] HVL2[cm AL] HVL1[cmCu] HVL2[cmCu] MeanE[keV] EffEAl[keV] EffECu[keV]
0.6313424  1.035841  0.0329815  0.1026184  70.44508  47.2915  52.03697
**** CALCULATED SPECTRUM ****
Energy[keV]  N[keV cm^2 mAs]^-1 @ 1 meter
22.5  7.713720e+6
23  8.187814e+6
23.5  8.585471e+6
24  9.020848e+6
24.5  9.371654e+6
25  9.752800e+6
25.5  1.008879e+7
26  1.045187e+7
26.5  1.074331e+7
27  1.105671e+7
27.5  1.131867e+7
28  1.159107e+7
28.5  1.180960e+7
29  1.204350e+7
29.5  1.221624e+7
30  1.240142e+7
30.5  1.255129e+7
31  1.271209e+7
31.5  1.282095e+7
32  1.294425e+7
32.5  1.303205e+7
33  1.312772e+7
33.5  1.319755e+7
34  1.327454e+7
34.5  1.330951e+7
35  1.335045e+7
35.5  1.335090e+7
36  1.335641e+7
36.5  1.336105e+7
37  1.336348e+7
37.5  1.334424e+7
38  1.332947e+7
38.5  1.329062e+7
39  1.325589e+7
39.5  1.320203e+7
40  1.315198e+7
40.5  1.309857e+7
41  1.305293e+7
41.5  1.298366e+7
42  1.291790e+7
42.5  1.284029e+7
43  1.276602e+7
43.5  1.268374e+7
44  1.260466e+7
44.5  1.251557e+7
45  1.242958e+7
45.5  1.234243e+7
46  1.225298e+7
46.5  1.215549e+7
47  1.206093e+7
47.5  1.196027e+7
48  1.186246e+7
48.5  1.176364e+7
49  1.166752e+7
49.5  1.156534e+7
50  1.146854e+7
50.5  1.136467e+7
51  1.126339e+7
51.5  1.115951e+7
52  1.105814e+7
52.5  1.095565e+7
53  1.085557e+7
53.5  1.075286e+7
54  1.065250e+7
54.5  1.055345e+7
55  1.045291e+7
55.5  1.034982e+7
56  1.024896e+7
56.5  1.014694e+7
57  1.004709e+7
57.5  9.949333e+6
58  1.170506e+8
58.5  9.755339e+6
59  9.660912e+6
59.5  1.959450e+8
60  9.468988e+6
60.5  9.372809e+6
61  9.278525e+6
61.5  9.186082e+6
62  9.095431e+6
62.5  9.002340e+6
63  8.911023e+6
63.5  8.824079e+6
64  8.736104e+6
64.5  8.646012e+6
65  8.557594e+6
65.5  8.471949e+6
66  8.387869e+6
66.5  8.302820e+6
67  6.869073e+7
67.5  8.135939e+6
68  8.055284e+6
68.5  7.973777e+6
69  2.360538e+7
69.5  7.807298e+6
70  5.968062e+6
70.5  5.933758e+6
71  5.900144e+6
71.5  5.859656e+6
72  5.819884e+6
72.5  5.789829e+6
73  5.759017e+6
73.5  5.723069e+6
74  5.687767e+6
74.5  5.652279e+6
75  5.617415e+6
75.5  5.580789e+6
76  5.544783e+6
76.5  5.508525e+6
77  5.473465e+6
77.5  5.437731e+6
78  5.402578e+6
78.5  5.364915e+6
79  5.327842e+6
79.5  5.291346e+6
80  5.255415e+6
80.5  5.219269e+6
81  5.183672e+6
81.5  5.148331e+6
82  5.112385e+6
82.5  5.075537e+6
83  5.039227e+6
83.5  5.002770e+6
84  4.966839e+6
84.5  4.930628e+6
85  4.894930e+6
85.5  4.859013e+6
86  4.824034e+6
86.5  4.788517e+6
87  4.753492e+6
87.5  4.718246e+6
88  4.683481e+6
88.5  4.647868e+6
89  4.612737e+6
89.5  4.578696e+6
90  4.545108e+6
90.5  4.511112e+6
91  4.476642e+6
91.5  4.442562e+6
92  4.408928e+6
92.5  4.375141e+6
93  4.341791e+6
93.5  4.308227e+6
94  4.275094e+6
94.5  4.242957e+6
95  4.211583e+6
95.5  4.178581e+6
96  4.145997e+6
96.5  4.113822e+6
97  4.082050e+6
97.5  4.050067e+6
98  4.018480e+6
98.5  3.987283e+6
99  3.956470e+6
99.5  3.926268e+6
100  3.895681e+6
100.5  3.864943e+6
101  3.834578e+6
101.5  3.804579e+6
102  3.774940e+6
102.5  3.745095e+6
103  3.715607e+6
103.5  3.686468e+6
104  3.657912e+6
104.5  3.629010e+6
105  3.600447e+6
105.5  3.571686e+6
106  3.543261e+6
106.5  3.515168e+6
107  3.487401e+6
107.5  3.459486e+6
108  3.431893e+6
108.5  3.405259e+6
109  3.378307e+6
109.5  3.351164e+6
110  3.324331e+6
110.5  3.297802e+6
111  3.271573e+6
111.5  3.245638e+6
112  3.219993e+6
112.5  3.194161e+6
113  3.168793e+6
113.5  3.142721e+6
114  3.116941e+6
114.5  3.091867e+6
115  3.067069e+6
115.5  3.042543e+6
116  3.018286e+6
116.5  2.994292e+6
117  2.970558e+6
117.5  2.946369e+6
118  2.921931e+6
118.5  2.898153e+6
119  2.874633e+6
119.5  2.851365e+6
120  2.828348e+6
120.5  2.805197e+6
121  2.782294e+6
121.5  2.760007e+6
122  2.738046e+6
122.5  2.715452e+6
123  2.693100e+6
123.5  2.671010e+6
124  2.649153e+6
124.5  2.627499e+6
125  2.606072e+6
125.5  2.584520e+6
126  2.563192e+6
126.5  2.542512e+6
127  2.521618e+6
127.5  2.500939e+6
128  2.480473e+6
128.5  2.459533e+6
129  2.438810e+6
129.5  2.418975e+6
130  2.399340e+6
130.5  2.379242e+6
131  2.359380e+6
131.5  2.339978e+6
132  2.320770e+6
132.5  2.301118e+6
133  2.281666e+6
133.5  2.262716e+6
134  2.243957e+6
134.5  2.225083e+6
135  2.206399e+6
135.5  2.187934e+6
136  2.169298e+6
136.5  2.150858e+6
137  2.132603e+6
137.5  2.114813e+6
138  2.097198e+6
138.5  2.079185e+6
139  2.061351e+6
139.5  2.044253e+6
140  2.027281e+6
140.5  2.009594e+6
141  1.992083e+6
141.5  1.975012e+6
142  1.958106e+6
142.5  1.941368e+6
143  1.924791e+6
143.5  1.908369e+6
144  1.892106e+6
144.5  1.875731e+6
145  1.859212e+6
145.5  1.842853e+6
146  1.826653e+6
146.5  1.810852e+6
147  1.795202e+6
147.5  1.779220e+6
148  1.763393e+6
148.5  1.748189e+6
149  1.733080e+6
149.5  1.717603e+6
150  1.702272e+6
150.5  1.687091e+6
151  1.672054e+6
151.5  1.657153e+6
152  1.642392e+6
152.5  1.627767e+6
153  1.613279e+6
153.5  1.598877e+6
154  1.584353e+6
154.5  1.569753e+6
155  1.555292e+6
155.5  1.541164e+6
156  1.527167e+6
156.5  1.513308e+6
157  1.499577e+6
157.5  1.485770e+6
158  1.471992e+6
158.5  1.458302e+6
159  1.444738e+6
159.5  1.431104e+6
160  1.417597e+6
160.5  1.404214e+6
161  1.390954e+6
161.5  1.378001e+6
162  1.365165e+6
162.5  1.352156e+6
163  1.339048e+6
163.5  1.326060e+6
164  1.313190e+6
164.5  1.300612e+6
165  1.288147e+6
165.5  1.275620e+6
166  1.263206e+6
166.5  1.250904e+6
167  1.238582e+6
167.5  1.226335e+6
168  1.214196e+6
168.5  1.201859e+6
169  1.189634e+6
169.5  1.177661e+6
170  1.165794e+6
170.5  1.154188e+6
171  1.142683e+6
171.5  1.130848e+6
172  1.118934e+6
172.5  1.107255e+6
173  1.095680e+6
173.5  1.084230e+6
174  1.072880e+6
174.5  1.061608e+6
175  1.050435e+6
175.5  1.039242e+6
176  1.027984e+6
176.5  1.016905e+6
177  1.005922e+6
177.5  994788.4
178  983753.9
178.5  972924.4
179  962188.5
179.5  951441.7
180  940789.9
180.5  930212.5
181  919566.4
181.5  908869.6
182  898266.6
182.5  887756.4
183  877337.8
183.5  867118
184  856985.4
184.5  846833.4
185  836518
185.5  826135.6
186  815843.7
186.5  805641.5
187  795527.8
187.5  785599.9
188  775756.4
188.5  765900.3
189  756129
189.5  746161.4
190  736142.4
190.5  726210.3
191  716364.1
191.5  706698.3
192  697113.8
192.5  687517.2
193  678002.7
193.5  668563.5
194  658871.1
194.5  649133.8
195  639480.5
195.5  629995.2
196  620589.6
196.5  611180.3
197  601851.4
197.5  592602.2
198  583431.6
198.5  573942.4
199  564414.7
199.5  555048.3
200  545760.2
200.5  536472.6
201  527264.4
201.5  518134.7
202  509082.5
202.5  500103.4
203  490733.4
203.5  481399.9
204  472144.2
204.5  462903
205  453740.5
205.5  444652.7
206  435642.2
206.5  426708.2
207  417849.9
207.5  408571.8
208  399265.4
208.5  389983.8
209  380781.3
209.5  371657.1
210  362610.3
210.5  353640.3
211  344746.1
211.5  335925.2
212  325939.6
212.5  315977.6
213  306098.4
213.5  296259.6
214  286504.8
214.5  276833.1
215  267243.7
215.5  257735.7
216  248308.3
216.5  238787.4
217  229252.6
217.5  219767.1
218  210362.4
218.5  201037.7
219  191792.1
219.5  182624.3
220  173534.2
220.5  164521.5
221  145753.2
221.5  126993
222  108390.5
222.5  89931.93
223  71632.85
223.5  53491.67
224  35506.83
224.5  17676.78
225  0
